0.06499999999999995,0.725,-0.21999999999999997
0.07499999999999996,0.6950000000000001,-0.2250000000000001
0.07999999999999996,0.6699999999999999,-0.24
0.08499999999999996,0.6599999999999999,-0.2450000000000001
0.08499999999999996,0.655,-0.2250000000000001
0.11499999999999999,0.63,-0.21500000000000008
0.17000000000000004,0.615,-0.22999999999999998
0.235,0.5900000000000001,-0.2450000000000001
0.265,0.565,-0.2450000000000001
0.28500000000000003,0.5700000000000001,-0.21500000000000008
0.28500000000000003,0.5800000000000001,-0.18999999999999995
0.29500000000000004,0.585,-0.18500000000000005
0.31000000000000005,0.575,-0.19999999999999996
0.33499999999999996,0.55,-0.20500000000000007
0.32999999999999996,0.5349999999999999,-0.20500000000000007
0.29500000000000004,0.5549999999999999,-0.19500000000000006
0.28500000000000003,0.5549999999999999,-0.17999999999999994
0.28500000000000003,0.5900000000000001,-0.16500000000000004
0.28500000000000003,0.61,-0.1499999999999999
0.30000000000000004,0.595,-0.16500000000000004
0.27,0.5800000000000001,-0.135
0.21499999999999997,0.585,-0.09000000000000008
0.18500000000000005,0.595,-0.09000000000000008
0.19499999999999995,0.595,-0.09000000000000008
0.20499999999999996,0.595,-0.09499999999999997
0.20499999999999996,0.56,-0.07499999999999996
0.19499999999999995,0.5700000000000001,-0.02499999999999991
0.15500000000000003,0.5700000000000001,0.025000000000000022
0.15000000000000002,0.6,0.07999999999999996
0.14,0.615,0.11499999999999999
0.15500000000000003,0.61,0.15500000000000003
0.16500000000000004,0.595,0.20499999999999996
0.14500000000000002,0.605,0.27
0.14500000000000002,0.5800000000000001,0.35
0.135,0.61,0.45499999999999996
0.15000000000000002,0.635,0.5449999999999999
0.17000000000000004,0.61,0.5900000000000001
0.18000000000000005,0.615,0.615
0.17000000000000004,0.615,0.64
0.17500000000000004,0.625,0.665
0.17500000000000004,0.6599999999999999,0.75
0.20999999999999996,0.6699999999999999,0.8049999999999999
0.245,0.6599999999999999,0.855
0.255,0.65,0.915
0.235,0.65,0.99
0.18999999999999995,0.675,1.045
0.19499999999999995,0.6799999999999999,1.135
0.265,0.6950000000000001,1.195
0.37,0.6950000000000001,1.225
0.515,0.6950000000000001,1.25
0.685,0.69,1.25
0.935,0.69,1.225
1.22,0.6950000000000001,1.185
1.505,0.6950000000000001,1.13
1.755,0.6699999999999999,1.09
1.925,0.655,1.045
1.9,0.635,1.015
1.62,0.635,1.0
1.23,0.6699999999999999,1.025
0.85,0.69,1.03
0.495,0.685,1.0
0.26,0.655,0.945
0.17000000000000004,0.65,0.925
0.135,0.645,0.915
0.14500000000000002,0.6599999999999999,0.915
0.17500000000000004,0.645,0.945
0.19499999999999995,0.645,0.94
0.20999999999999996,0.64,0.91
0.22499999999999998,0.625,0.86
0.235,0.63,0.79
0.235,0.645,0.6950000000000001
0.255,0.675,0.5700000000000001
0.275,0.6950000000000001,0.42500000000000004
0.28500000000000003,0.7050000000000001,0.22499999999999998
0.26,0.7150000000000001,0.04500000000000004
0.235,0.72,-0.09499999999999997
0.22999999999999998,0.74,-0.20999999999999996
0.245,0.76,-0.30000000000000004
0.245,0.755,-0.3700000000000001
0.22499999999999998,0.73,-0.42500000000000004
0.17000000000000004,0.7150000000000001,-0.43500000000000005
0.125,0.7,-0.43500000000000005
0.08499999999999996,0.725,-0.45500000000000007
0.09499999999999997,0.73,-0.47
0.14,0.725,-0.51
0.18500000000000005,0.6950000000000001,-0.54
0.245,0.685,-0.56
0.30500000000000005,0.6950000000000001,-0.585
0.365,0.725,-0.5700000000000001
0.43500000000000005,0.75,-0.56
0.52,0.735,-0.55
0.5349999999999999,0.71,-0.565
0.48,0.685,-0.595
0.42000000000000004,0.7050000000000001,-0.6000000000000001
0.375,0.6950000000000001,-0.605
0.36,0.6699999999999999,-0.625
0.33499999999999996,0.6599999999999999,-0.635
0.30000000000000004,0.655,-0.655
0.28,0.65,-0.655
0.245,0.655,-0.6799999999999999
0.25,0.6699999999999999,-0.6699999999999999
0.265,0.685,-0.675
0.29000000000000004,0.665,-0.6950000000000001
0.30000000000000004,0.6599999999999999,-0.7250000000000001
0.30000000000000004,0.65,-0.7350000000000001
0.32999999999999996,0.65,-0.73
0.375,0.655,-0.74
0.41000000000000003,0.665,-0.7450000000000001
0.46499999999999997,0.645,-0.7450000000000001
0.46499999999999997,0.635,-0.75
0.47,0.63,-0.7549999999999999
0.44999999999999996,0.61,-0.7649999999999999
0.44999999999999996,0.635,-0.76
0.45999999999999996,0.6599999999999999,-0.7649999999999999
0.47,0.645,-0.7849999999999999
0.48,0.615,-0.7949999999999999
0.44499999999999995,0.62,-0.815
0.43999999999999995,0.645,-0.815
0.44999999999999996,0.6799999999999999,-0.825
0.475,0.685,-0.825
0.49,0.6799999999999999,-0.835
0.495,0.685,-0.845
0.5,0.6799999999999999,-0.855
0.495,0.685,-0.8400000000000001
0.475,0.7150000000000001,-0.815
0.45499999999999996,0.74,-0.815
0.41000000000000003,0.74,-0.8300000000000001
0.36,0.745,-0.845
0.30000000000000004,0.745,-0.8200000000000001
0.29000000000000004,0.775,-0.79
0.29000000000000004,0.79,-0.7649999999999999
0.31499999999999995,0.81,-0.7350000000000001
0.33999999999999997,0.79,-0.7450000000000001
0.355,0.78,-0.76
0.36,0.755,-0.76
0.32499999999999996,0.77,-0.71
0.29500000000000004,0.775,-0.685
0.32499999999999996,0.77,-0.665
0.4,0.755,-0.665
0.47,0.725,-0.6499999999999999
0.43000000000000005,0.7050000000000001,-0.625
0.29000000000000004,0.69,-0.5900000000000001
0.16500000000000004,0.685,-0.53
0.17500000000000004,0.675,-0.4750000000000001
0.37,0.6599999999999999,-0.45500000000000007
0.54,0.6699999999999999,-0.44999999999999996
0.52,0.7,-0.43999999999999995
0.725,0.755,-0.4099999999999999
1.315,0.8049999999999999,-0.3600000000000001
1.855,0.845,-0.33499999999999996
2.025,0.905,-0.3400000000000001
1.6949999999999998,0.95,-0.3600000000000001
1.255,1.0,-0.3500000000000001
1.3599999999999999,1.095,-0.32499999999999996
1.865,1.2,-0.30000000000000004
2.1100000000000003,1.295,-0.27
1.9300000000000002,1.355,-0.2549999999999999
1.77,1.4,-0.25
1.79,1.47,-0.22999999999999998
1.815,1.55,-0.21999999999999997
1.72,1.645,-0.20999999999999996
1.545,1.71,-0.21500000000000008
1.405,1.77,-0.2250000000000001
1.29,1.8399999999999999,-0.2250000000000001
1.155,1.915,-0.22999999999999998
1.01,1.9649999999999999,-0.20999999999999996
0.87,2.0149999999999997,-0.19999999999999996
0.755,2.085,-0.20500000000000007
0.625,2.1550000000000002,-0.20999999999999996
0.49,2.25,-0.19999999999999996
0.385,2.34,-0.19999999999999996
0.30000000000000004,2.42,-0.17999999999999994
0.27,2.495,-0.16999999999999993
0.27,2.55,-0.16500000000000004
0.29000000000000004,2.605,-0.18500000000000005
0.30000000000000004,2.6550000000000002,-0.18500000000000005
0.31000000000000005,2.685,-0.18999999999999995
0.31999999999999995,2.725,-0.18500000000000005
0.29000000000000004,2.725,-0.15500000000000003
0.28500000000000003,2.5700000000000003,-0.16500000000000004
0.26,2.205,-0.16500000000000004
0.24,1.77,-0.15500000000000003
0.19999999999999996,1.395,-0.16999999999999993
0.18500000000000005,1.095,-0.17500000000000004
0.19999999999999996,0.88,-0.15999999999999992
0.21999999999999997,0.75,-0.15999999999999992
0.26,0.62,-0.16999999999999993
0.31499999999999995,0.525,-0.17999999999999994
0.365,0.44999999999999996,-0.17500000000000004
0.43500000000000005,0.4,-0.1499999999999999
0.5,0.375,-0.1299999999999999
0.565,0.345,-0.1200000000000001
0.62,0.33999999999999997,-0.125
0.685,0.31499999999999995,-0.1299999999999999
0.71,0.28,-0.1399999999999999
0.725,0.25,-0.135
0.735,0.27,-0.1100000000000001
0.76,0.265,-0.1100000000000001
0.775,0.24,-0.1100000000000001
0.755,0.22499999999999998,-0.125
0.7050000000000001,0.20999999999999996,-0.1200000000000001
0.6599999999999999,0.20499999999999996,-0.10499999999999998
0.64,0.20999999999999996,-0.10000000000000009
0.615,0.21999999999999997,-0.09499999999999997
0.5900000000000001,0.21499999999999997,-0.10000000000000009
0.5349999999999999,0.18000000000000005,-0.1100000000000001
0.475,0.15500000000000003,-0.125
0.41500000000000004,0.16500000000000004,-0.11499999999999999
0.39,0.18999999999999995,-0.08000000000000007
0.365,0.18999999999999995,-0.06000000000000005
0.35,0.18500000000000005,-0.07499999999999996
0.32499999999999996,0.15500000000000003,-0.08000000000000007
0.28500000000000003,0.11499999999999999,-0.08499999999999996
0.25,0.09999999999999998,-0.07499999999999996
0.21999999999999997,0.13,-0.06000000000000005
0.235,0.14500000000000002,-0.050000000000000044
0.25,0.15500000000000003,-0.06000000000000005
0.245,0.14,-0.08000000000000007
0.21999999999999997,0.09999999999999998,-0.08000000000000007
0.20999999999999996,0.08499999999999996,-0.05499999999999994
0.20999999999999996,0.08999999999999997,-0.06499999999999995
0.21499999999999997,0.09999999999999998,-0.05499999999999994
0.25,0.07999999999999996,-0.05499999999999994
0.22999999999999998,0.06999999999999995,-0.06499999999999995
0.21499999999999997,0.06999999999999995,-0.06499999999999995
0.19499999999999995,0.06000000000000005,-0.06000000000000005
0.21499999999999997,0.06999999999999995,-0.04499999999999993
0.235,0.05500000000000005,-0.040000000000000036
0.265,0.04500000000000004,-0.03499999999999992
0.265,0.025000000000000022,-0.04499999999999993
0.235,0.020000000000000018,-0.05499999999999994
0.19999999999999996,0.020000000000000018,-0.040000000000000036
0.18000000000000005,0.010000000000000009,-0.02499999999999991
0.16000000000000003,0.030000000000000027,-0.020000000000000018
0.17500000000000004,0.015000000000000013,-0.020000000000000018
0.20999999999999996,-0.004999999999999893,-0.04499999999999993
0.27,-0.030000000000000027,-0.050000000000000044
0.395,-0.014999999999999902,-0.030000000000000027
0.5349999999999999,-0.02499999999999991,-0.010000000000000009
0.73,-0.014999999999999902,0.010000000000000009
0.955,-0.030000000000000027,0.020000000000000018
1.21,-0.050000000000000044,0.020000000000000018
1.44,-0.06000000000000005,0.03500000000000003
1.635,-0.06499999999999995,0.05500000000000005
1.8199999999999998,-0.030000000000000027,0.07499999999999996
1.9,-0.014999999999999902,0.09499999999999997
1.7650000000000001,-0.030000000000000027,0.08999999999999997
1.395,-0.050000000000000044,0.08499999999999996
0.915,-0.06000000000000005,0.10999999999999999
0.5,-0.05499999999999994,0.13
0.235,-0.030000000000000027,0.13
0.15000000000000002,-0.010000000000000009,0.15500000000000003
0.18999999999999995,-0.014999999999999902,0.16000000000000003
0.22499999999999998,-0.050000000000000044,0.14500000000000002
0.20999999999999996,-0.05499999999999994,0.14
0.20499999999999996,-0.030000000000000027,0.135
0.22499999999999998,0.0,0.15500000000000003
0.265,0.030000000000000027,0.16000000000000003
0.28,0.03500000000000003,0.14500000000000002
0.26,0.04500000000000004,0.11499999999999999
0.245,0.06999999999999995,0.09999999999999998
0.235,0.09999999999999998,0.08999999999999997
0.235,0.135,0.07499999999999996
0.22999999999999998,0.18500000000000005,0.050000000000000044
0.255,0.22499999999999998,0.030000000000000027
0.25,0.22499999999999998,0.0050000000000000044
0.22499999999999998,0.24,-0.014999999999999902
0.21999999999999997,0.265,-0.010000000000000009
0.25,0.29500000000000004,0.0050000000000000044
0.275,0.31499999999999995,0.0050000000000000044
0.30000000000000004,0.35,-0.020000000000000018
0.30500000000000005,0.355,-0.030000000000000027
0.31000000000000005,0.37,-0.02499999999999991
0.29500000000000004,0.385,-0.010000000000000009
0.30500000000000005,0.42000000000000004,-0.020000000000000018
0.32499999999999996,0.45499999999999996,-0.030000000000000027
0.345,0.45999999999999996,-0.030000000000000027
0.32499999999999996,0.45499999999999996,-0.04499999999999993
0.31999999999999995,0.43999999999999995,-0.030000000000000027
0.31000000000000005,0.44499999999999995,-0.020000000000000018
0.30500000000000005,0.43999999999999995,-0.010000000000000009
0.31999999999999995,0.44999999999999996,-0.004999999999999893
0.33499999999999996,0.5,-0.020000000000000018
0.355,0.495,-0.030000000000000027
0.355,0.475,-0.03499999999999992
0.35,0.46499999999999997,-0.02499999999999991
0.35,0.49,-0.010000000000000009
0.365,0.505,-0.014999999999999902
0.38,0.495,-0.020000000000000018
0.395,0.49,-0.040000000000000036
0.39,0.5,-0.030000000000000027
0.375,0.5,-0.030000000000000027
0.37,0.525,0.0
0.385,0.52,0.020000000000000018
0.405,0.515,0.07499999999999996
0.43999999999999995,0.51,0.15500000000000003
0.44999999999999996,0.505,0.29000000000000004
0.44499999999999995,0.525,0.48
0.46499999999999997,0.55,0.73
0.48,0.5349999999999999,1.005
0.505,0.525,1.26
0.52,0.495,1.455
0.5,0.5,1.5550000000000002
0.48,0.53,1.49
0.505,0.5449999999999999,1.245
0.525,0.5549999999999999,0.885
0.5449999999999999,0.565,0.505
0.5449999999999999,0.56,0.18000000000000005
0.5449999999999999,0.565,0.04500000000000004
0.55,0.575,0.030000000000000027
0.575,0.585,0.030000000000000027
0.5800000000000001,0.61,0.015000000000000013
0.61,0.6,-0.010000000000000009
0.62,0.585,-0.010000000000000009
0.61,0.595,0.025000000000000022
0.585,0.605,0.06000000000000005
0.56,0.635,0.05500000000000005
0.5449999999999999,0.655,0.030000000000000027
0.5700000000000001,0.6599999999999999,0.0
0.5700000000000001,0.64,0.0
0.55,0.6599999999999999,0.015000000000000013
0.5449999999999999,0.69,0.03500000000000003
0.54,0.73,0.050000000000000044
0.565,0.765,0.025000000000000022
0.565,0.76,0.020000000000000018
0.5700000000000001,0.765,0.0050000000000000044
0.5549999999999999,0.76,0.0050000000000000044
0.55,0.755,0.0050000000000000044
0.5549999999999999,0.755,0.030000000000000027
0.5700000000000001,0.755,0.06000000000000005
0.5800000000000001,0.735,0.05500000000000005
0.5800000000000001,0.6950000000000001,0.015000000000000013
0.565,0.6699999999999999,0.020000000000000018
0.5549999999999999,0.6699999999999999,0.025000000000000022
0.5700000000000001,0.6699999999999999,0.020000000000000018
0.575,0.655,0.020000000000000018
0.5800000000000001,0.635,0.03500000000000003
0.585,0.61,0.04500000000000004
0.5549999999999999,0.595,0.050000000000000044
0.55,0.6,0.04500000000000004
0.55,0.61,0.06000000000000005
0.575,0.6,0.07499999999999996
0.565,0.5700000000000001,0.09499999999999997
0.5549999999999999,0.5349999999999999,0.08499999999999996
0.5349999999999999,0.52,0.08999999999999997
0.525,0.5449999999999999,0.09499999999999997
0.53,0.55,0.09999999999999998
0.5349999999999999,0.565,0.11499999999999999
0.5549999999999999,0.5549999999999999,0.10999999999999999
0.5549999999999999,0.525,0.09499999999999997
0.5449999999999999,0.52,0.09499999999999997
0.5349999999999999,0.53,0.125
0.5449999999999999,0.54,0.13
0.565,0.55,0.13
0.605,0.525,0.13
0.62,0.515,0.135
0.62,0.52,0.15000000000000002
0.605,0.525,0.18000000000000005
0.6,0.54,0.19999999999999996
0.615,0.5449999999999999,0.22499999999999998
0.655,0.495,0.21499999999999997
0.675,0.49,0.19999999999999996
0.65,0.48,0.18500000000000005
0.635,0.51,0.19999999999999996
0.625,0.605,0.245
0.635,0.73,0.265
0.6599999999999999,0.88,0.27
0.685,1.08,0.265
0.7050000000000001,1.345,0.26
0.7050000000000001,1.65,0.29500000000000004
0.735,1.9300000000000002,0.32999999999999996
0.765,2.175,0.345
0.79,2.315,0.33999999999999997
0.79,2.23,0.32999999999999996
0.775,1.935,0.32499999999999996
0.78,1.51,0.33999999999999997
0.79,1.095,0.365
0.815,0.755,0.39
0.845,0.5900000000000001,0.41000000000000003
0.84,0.53,0.405
0.83,0.515,0.405
0.815,0.5,0.41000000000000003
0.825,0.525,0.43000000000000005
0.825,0.54,0.43500000000000005
0.825,0.5549999999999999,0.42000000000000004
0.8,0.5549999999999999,0.405
0.765,0.5449999999999999,0.41500000000000004
0.745,0.5349999999999999,0.43999999999999995
0.725,0.5449999999999999,0.48
0.72,0.565,0.485
0.7,0.565,0.49
0.69,0.5549999999999999,0.46499999999999997
0.675,0.5449999999999999,0.43999999999999995
0.64,0.525,0.43000000000000005
0.62,0.53,0.42500000000000004
0.5900000000000001,0.53,0.43000000000000005
0.5800000000000001,0.525,0.42500000000000004
0.575,0.515,0.405
0.565,0.505,0.375
0.56,0.5,0.36
0.56,0.505,0.395
0.575,0.515,0.38
0.585,0.52,0.345
0.5700000000000001,0.51,0.28
0.56,0.515,0.255
0.56,0.53,0.26
0.565,0.56,0.29000000000000004
0.5700000000000001,0.5700000000000001,0.29500000000000004
0.5800000000000001,0.575,0.255
0.5800000000000001,0.55,0.20499999999999996
0.565,0.5349999999999999,0.17500000000000004
0.565,0.55,0.18999999999999995
0.5700000000000001,0.56,0.18000000000000005
0.61,0.5900000000000001,0.19999999999999996
0.69,0.585,0.17500000000000004
0.8,0.5700000000000001,0.15500000000000003
0.915,0.565,0.125
1.06,0.575,0.10499999999999998
1.28,0.5900000000000001,0.125
1.5350000000000001,0.61,0.14
1.81,0.615,0.14
2.0549999999999997,0.61,0.14500000000000002
2.26,0.605,0.16000000000000003
2.355,0.5900000000000001,0.16000000000000003
2.205,0.62,0.14
1.8399999999999999,0.655,0.10999999999999999
1.42,0.6599999999999999,0.10499999999999998
1.055,0.6599999999999999,0.09499999999999997
0.77,0.665,0.125
0.64,0.6950000000000001,0.15500000000000003
0.61,0.7150000000000001,0.16000000000000003
0.61,0.725,0.135
0.595,0.72,0.10999999999999999
0.5800000000000001,0.7,0.08999999999999997
0.575,0.69,0.08999999999999997
0.5700000000000001,0.7150000000000001,0.09999999999999998
0.56,0.74,0.11499999999999999
0.5549999999999999,0.77,0.10499999999999998
0.5549999999999999,0.77,0.125
0.56,0.765,0.14500000000000002
0.5449999999999999,0.75,0.13
0.52,0.765,0.125
0.53,0.755,0.125
0.54,0.78,0.14
0.55,0.795,0.15000000000000002
0.5549999999999999,0.8,0.135
0.5349999999999999,0.81,0.15000000000000002
0.5349999999999999,0.8200000000000001,0.17000000000000004
0.53,0.84,0.18500000000000005
0.5549999999999999,0.825,0.18500000000000005
0.55,0.83,0.16500000000000004
0.56,0.8049999999999999,0.16500000000000004
0.5549999999999999,0.78,0.15500000000000003
0.5549999999999999,0.8049999999999999,0.17500000000000004
0.5700000000000001,0.85,0.18999999999999995
0.5700000000000001,0.865,0.20499999999999996
0.5900000000000001,0.855,0.20499999999999996
0.585,0.835,0.22999999999999998
0.565,0.835,0.25
0.5700000000000001,0.845,0.275
0.5800000000000001,0.86,0.29000000000000004
0.585,0.87,0.30000000000000004
0.6,0.865,0.28500000000000003
0.615,0.855,0.29500000000000004
0.605,0.835,0.29000000000000004
0.595,0.85,0.28
0.585,0.855,0.30000000000000004
0.6,0.85,0.30500000000000005
0.64,0.83,0.30000000000000004
0.65,0.8049999999999999,0.28
0.645,0.78,0.28500000000000003
0.64,0.78,0.27
0.65,0.765,0.265
0.665,0.755,0.25
0.7050000000000001,0.73,0.21999999999999997
0.7150000000000001,0.7050000000000001,0.18000000000000005
0.72,0.6799999999999999,0.18500000000000005
0.72,0.665,0.17500000000000004
0.72,0.6599999999999999,0.17500000000000004
0.73,0.675,0.18000000000000005
0.76,0.6950000000000001,0.16500000000000004
0.77,0.6950000000000001,0.135
0.77,0.6699999999999999,0.13
0.775,0.655,0.13
0.78,0.64,0.125
0.8049999999999999,0.625,0.125
0.8200000000000001,0.62,0.125
0.83,0.5900000000000001,0.13
0.835,0.56,0.13
0.81,0.565,0.13
0.825,0.605,0.125
0.83,0.615,0.12
0.85,0.615,0.125
0.865,0.605,0.135
0.86,0.5900000000000001,0.135
0.855,0.5800000000000001,0.15500000000000003
0.835,0.605,0.15500000000000003
0.825,0.615,0.16000000000000003
0.86,0.6,0.15000000000000002
0.88,0.585,0.14500000000000002
0.88,0.5800000000000001,0.14
0.855,0.565,0.14
0.87,0.585,0.12
0.88,0.6,0.07999999999999996
0.885,0.5900000000000001,0.06000000000000005
0.89,0.5900000000000001,0.08499999999999996
0.855,0.585,0.17500000000000004
0.85,0.5800000000000001,0.29500000000000004
0.85,0.605,0.44999999999999996
0.88,0.61,0.615
0.885,0.61,0.785
0.87,0.625,1.0
0.855,0.63,1.2650000000000001
0.83,0.64,1.51
0.845,0.6599999999999999,1.69
0.85,0.6699999999999999,1.74
0.865,0.675,1.605
0.85,0.6699999999999999,1.2650000000000001
0.835,0.69,0.905
0.815,0.73,0.595
0.8049999999999999,0.74,0.33999999999999997
0.815,0.73,0.20499999999999996
0.795,0.72,0.15000000000000002
0.77,0.71,0.13
0.76,0.6950000000000001,0.125
0.735,0.7050000000000001,0.12
0.72,0.7,0.17000000000000004
0.73,0.7150000000000001,0.18999999999999995
0.75,0.7050000000000001,0.18999999999999995
0.76,0.6799999999999999,0.17000000000000004
0.775,0.65,0.16000000000000003
0.75,0.635,0.17000000000000004
0.725,0.62,0.17500000000000004
0.72,0.61,0.17000000000000004
0.745,0.595,0.14
0.75,0.5549999999999999,0.08999999999999997
0.735,0.53,0.08499999999999996
0.7050000000000001,0.53,0.09999999999999998
0.7,0.5349999999999999,0.135
0.7050000000000001,0.56,0.17000000000000004
0.74,0.5449999999999999,0.15000000000000002
0.765,0.525,0.13
0.74,0.52,0.13
0.73,0.52,0.15000000000000002
0.725,0.5349999999999999,0.18000000000000005
0.74,0.55,0.18500000000000005
0.765,0.53,0.17000000000000004
0.765,0.51,0.15500000000000003
0.75,0.49,0.15000000000000002
0.725,0.505,0.17000000000000004
0.745,0.5349999999999999,0.19499999999999995
0.755,0.5449999999999999,0.21499999999999997
0.78,0.5449999999999999,0.21499999999999997
0.8,0.52,0.21999999999999997
0.795,0.49,0.24
0.8,0.505,0.255
0.81,0.515,0.275
0.825,0.525,0.27
0.845,0.55,0.27
0.855,0.61,0.27
0.86,0.73,0.265
0.865,0.91,0.28500000000000003
0.895,1.185,0.29500000000000004
0.92,1.47,0.31999999999999995
0.925,1.78,0.31999999999999995
0.92,2.0149999999999997,0.31000000000000005
0.9,2.2199999999999998,0.31999999999999995
0.88,2.29,0.365
0.895,2.125,0.375
0.89,1.74,0.38
0.885,1.29,0.39
0.885,0.85,0.42000000000000004
0.87,0.5549999999999999,0.43000000000000005
0.855,0.45999999999999996,0.45499999999999996
0.83,0.49,0.47
0.8200000000000001,0.52,0.48
0.825,0.525,0.48
0.835,0.47,0.47
0.81,0.475,0.475
0.8,0.5,0.515
0.775,0.51,0.55
0.77,0.51,0.56
0.76,0.495,0.5549999999999999
0.745,0.45999999999999996,0.5549999999999999
0.71,0.46499999999999997,0.56
0.6699999999999999,0.47,0.5900000000000001
0.6599999999999999,0.49,0.625
0.675,0.495,0.64
0.685,0.49,0.625
0.6799999999999999,0.47,0.615
0.6699999999999999,0.47,0.605
0.655,0.46499999999999997,0.635
0.65,0.47,0.65
0.69,0.47,0.645
0.7150000000000001,0.475,0.61
0.72,0.45499999999999996,0.56
0.71,0.43999999999999995,0.55
0.6950000000000001,0.44499999999999995,0.54
0.6799999999999999,0.47,0.575
0.72,0.485,0.6
0.8200000000000001,0.495,0.575
0.925,0.49,0.5549999999999999
1.08,0.49,0.5349999999999999
1.25,0.495,0.53
1.455,0.49,0.505
1.685,0.515,0.51
1.915,0.51,0.47
2.0949999999999998,0.49,0.44999999999999996
2.1799999999999997,0.485,0.45999999999999996
2.09,0.5,0.46499999999999997
1.78,0.525,0.45499999999999996
1.395,0.5449999999999999,0.42000000000000004
1.03,0.53,0.38
0.74,0.48,0.355
0.585,0.485,0.345
0.565,0.51,0.35
0.565,0.54,0.345
0.5549999999999999,0.575,0.345
0.55,0.595,0.345
0.5800000000000001,0.565,0.33499999999999996
0.62,0.55,0.31999999999999995
0.615,0.5549999999999999,0.31499999999999995
0.625,0.5900000000000001,0.31499999999999995
0.625,0.62,0.30000000000000004
0.635,0.635,0.30000000000000004
0.64,0.625,0.28500000000000003
0.615,0.61,0.28
0.5900000000000001,0.61,0.29000000000000004
0.5700000000000001,0.62,0.31999999999999995
0.55,0.635,0.32499999999999996
0.5449999999999999,0.655,0.32499999999999996
0.505,0.6599999999999999,0.31499999999999995
0.485,0.6599999999999999,0.31000000000000005
0.5,0.675,0.32499999999999996
0.53,0.6799999999999999,0.32499999999999996
0.575,0.6699999999999999,0.345
0.585,0.675,0.32499999999999996
0.565,0.655,0.31999999999999995
0.54,0.65,0.32999999999999996
0.52,0.6799999999999999,0.33999999999999997
0.49,0.6699999999999999,0.33999999999999997
0.52,0.7050000000000001,0.33499999999999996
0.5449999999999999,0.7050000000000001,0.31499999999999995
0.5549999999999999,0.69,0.30000000000000004
0.56,0.685,0.29500000000000004
0.55,0.6950000000000001,0.30000000000000004
0.5449999999999999,0.675,0.31499999999999995
0.5800000000000001,0.6599999999999999,0.30500000000000005
0.6,0.6599999999999999,0.30000000000000004
0.585,0.6699999999999999,0.31000000000000005
0.6,0.6699999999999999,0.30500000000000005
0.6,0.675,0.31999999999999995
0.625,0.69,0.345
0.65,0.685,0.355
0.69,0.675,0.36
0.6950000000000001,0.655,0.375
0.6799999999999999,0.655,0.38
0.655,0.645,0.385
0.62,0.675,0.4
0.63,0.675,0.43000000000000005
0.65,0.6599999999999999,0.45499999999999996
0.69,0.645,0.475
0.7,0.61,0.46499999999999997
0.69,0.61,0.48
0.675,0.605,0.51
0.685,0.605,0.5449999999999999
0.6799999999999999,0.575,0.5349999999999999
0.6950000000000001,0.5449999999999999,0.515
0.71,0.5349999999999999,0.51
0.725,0.515,0.5349999999999999
0.72,0.55,0.565
0.73,0.575,0.575
0.74,0.565,0.595
0.725,0.5449999999999999,0.62
0.71,0.525,0.6799999999999999
0.7050000000000001,0.515,0.73
0.725,0.54,0.8200000000000001
0.755,0.55,0.88
0.77,0.55,0.92
0.77,0.54,0.955
0.745,0.525,1.025
0.735,0.53,1.12
0.72,0.55,1.195
0.725,0.56,1.28
0.735,0.5800000000000001,1.345
0.745,0.5449999999999999,1.415
0.7150000000000001,0.5349999999999999,1.49
0.6799999999999999,0.5549999999999999,1.5699999999999998
0.6950000000000001,0.565,1.65
0.7,0.5700000000000001,1.73
0.72,0.56,1.8
0.735,0.5449999999999999,1.825
0.7150000000000001,0.53,1.79
0.72,0.53,1.73
0.725,0.53,1.675
0.74,0.56,1.6600000000000001
0.74,0.61,1.63
0.74,0.64,1.5699999999999998
0.6950000000000001,0.625,1.52
0.6699999999999999,0.635,1.49
0.665,0.63,1.475
0.6699999999999999,0.65,1.445
0.685,0.6799999999999999,1.385
0.675,0.685,1.345
0.6699999999999999,0.69,1.285
0.6599999999999999,0.7,1.255
0.65,0.71,1.26
0.65,0.73,1.255
0.64,0.72,1.21
0.6599999999999999,0.675,1.1400000000000001
0.645,0.665,1.06
0.63,0.655,0.975
0.65,0.685,0.865
0.6699999999999999,0.69,0.725
0.69,0.665,0.52
0.6799999999999999,0.645,0.32999999999999996
0.645,0.61,0.19999999999999996
0.63,0.575,0.11499999999999999
0.605,0.5800000000000001,0.05500000000000005
0.62,0.5800000000000001,0.03500000000000003
0.655,0.5800000000000001,0.010000000000000009
0.675,0.55,-0.010000000000000009
0.645,0.515,-0.050000000000000044
0.635,0.5,-0.07000000000000006
0.625,0.5,-0.06499999999999995
0.64,0.505,-0.07000000000000006
0.645,0.5,-0.10499999999999998
0.635,0.48,-0.1399999999999999
0.64,0.48,-0.17500000000000004
0.63,0.485,-0.16500000000000004
0.62,0.515,-0.15500000000000003
0.615,0.5449999999999999,-0.17500000000000004
0.64,0.5449999999999999,-0.17999999999999994
0.655,0.505,-0.20500000000000007
0.65,0.5,-0.2250000000000001
0.65,0.51,-0.21999999999999997
0.645,0.54,-0.2250000000000001
0.665,0.55,-0.2350000000000001
0.6950000000000001,0.54,-0.26
0.71,0.525,-0.2749999999999999
0.71,0.505,-0.29499999999999993
0.725,0.51,-0.30000000000000004
0.745,0.5549999999999999,-0.29000000000000004
0.765,0.6599999999999999,-0.30499999999999994
0.785,0.79,-0.345
0.78,0.965,-0.3799999999999999
0.775,1.22,-0.4099999999999999
0.785,1.53,-0.41500000000000004
0.81,1.87,-0.385
0.845,2.17,-0.355
0.86,2.365,-0.3799999999999999
0.87,2.4299999999999997,-0.42500000000000004
0.835,2.245,-0.44500000000000006
0.8049999999999999,1.895,-0.44500000000000006
0.8,1.475,-0.42500000000000004
0.8,1.065,-0.4099999999999999
0.795,0.73,-0.43500000000000005
0.79,0.54,-0.4650000000000001
0.755,0.5,-0.47
0.7150000000000001,0.5349999999999999,-0.4650000000000001
0.7,0.53,-0.45999999999999996
0.6950000000000001,0.5,-0.45999999999999996
0.675,0.45499999999999996,-0.45500000000000007
0.6599999999999999,0.44999999999999996,-0.45999999999999996
0.64,0.47,-0.4750000000000001
0.62,0.53,-0.47
0.61,0.56,-0.4650000000000001
0.63,0.55,-0.45500000000000007
0.635,0.525,-0.4650000000000001
0.625,0.475,-0.44999999999999996
0.605,0.475,-0.41500000000000004
0.5800000000000001,0.49,-0.3799999999999999
0.595,0.48,-0.3600000000000001
0.605,0.48,-0.33000000000000007
0.64,0.49,-0.31499999999999995
0.665,0.48,-0.31499999999999995
0.6699999999999999,0.49,-0.29499999999999993
0.645,0.49,-0.2649999999999999
0.625,0.495,-0.21999999999999997
0.645,0.505,-0.18500000000000005
0.6699999999999999,0.485,-0.16500000000000004
0.6799999999999999,0.48,-0.1299999999999999
0.675,0.45499999999999996,-0.11499999999999999
0.655,0.44999999999999996,-0.07000000000000006
0.64,0.475,-0.010000000000000009
0.6599999999999999,0.49,0.0050000000000000044
0.675,0.485,0.030000000000000027
0.69,0.48,0.04500000000000004
0.74,0.475,0.05500000000000005
0.8,0.48,0.10999999999999999
0.89,0.5,0.14
1.025,0.53,0.14500000000000002
1.22,0.54,0.16500000000000004
1.425,0.53,0.15000000000000002
1.6600000000000001,0.515,0.16000000000000003
1.8900000000000001,0.525,0.18000000000000005
2.1,0.5349999999999999,0.19999999999999996
2.23,0.525,0.19999999999999996
2.1550000000000002,0.52,0.18500000000000005
1.8399999999999999,0.51,0.18999999999999995
1.415,0.52,0.18999999999999995
1.015,0.54,0.19499999999999995
0.725,0.5700000000000001,0.20999999999999996
0.5900000000000001,0.5900000000000001,0.19499999999999995
0.585,0.5800000000000001,0.18000000000000005
0.62,0.565,0.15500000000000003
0.595,0.5449999999999999,0.17000000000000004
0.54,0.5700000000000001,0.19499999999999995
0.5549999999999999,0.61,0.20499999999999996
0.6,0.625,0.21499999999999997
0.635,0.64,0.19999999999999996
0.635,0.645,0.15000000000000002
0.635,0.62,0.125
0.635,0.63,0.125
0.645,0.635,0.15000000000000002
0.65,0.6599999999999999,0.135
0.655,0.675,0.125
0.655,0.685,0.10999999999999999
0.64,0.6950000000000001,0.09999999999999998
0.64,0.7050000000000001,0.12
0.635,0.72,0.13
0.645,0.75,0.13
0.655,0.74,0.13
0.6699999999999999,0.74,0.135
0.6699999999999999,0.725,0.17000000000000004
0.6699999999999999,0.7150000000000001,0.21499999999999997
0.675,0.735,0.265
0.7,0.735,0.28
0.7150000000000001,0.75,0.27
0.73,0.74,0.235
0.7150000000000001,0.735,0.22499999999999998
0.7,0.74,0.21999999999999997
0.7150000000000001,0.765,0.20499999999999996
0.725,0.775,0.15500000000000003
0.745,0.765,0.09499999999999997
0.72,0.75,0.06999999999999995
0.6950000000000001,0.755,0.08999999999999997
0.6950000000000001,0.755,0.135
0.7150000000000001,0.77,0.17500000000000004
0.755,0.78,0.17500000000000004
0.775,0.77,0.15000000000000002
0.76,0.765,0.135
0.745,0.735,0.17500000000000004
0.735,0.725,0.21999999999999997
0.75,0.72,0.28
0.76,0.72,0.31999999999999995
0.8,0.7050000000000001,0.33999999999999997
0.815,0.6699999999999999,0.33999999999999997
0.8049999999999999,0.64,0.36
0.8,0.645,0.4
0.8049999999999999,0.665,0.43000000000000005
0.83,0.6799999999999999,0.45499999999999996
0.845,0.665,0.46499999999999997
0.855,0.63,0.48
0.845,0.605,0.485
0.84,0.595,0.51
0.84,0.62,0.505
0.85,0.63,0.475
0.865,0.625,0.44999999999999996
0.895,0.585,0.44499999999999995
0.905,0.56,0.43999999999999995
0.91,0.565,0.42500000000000004
0.92,0.565,0.39
0.94,0.585,0.38
0.965,0.595,0.375
0.96,0.605,0.405
0.95,0.5800000000000001,0.44499999999999995
0.95,0.575,0.485
0.95,0.6,0.505
0.96,0.62,0.495
0.965,0.625,0.5
0.955,0.605,0.515
0.97,0.5700000000000001,0.495
0.965,0.56,0.45999999999999996
0.96,0.5549999999999999,0.4
0.955,0.565,0.395
0.98,0.585,0.42500000000000004
0.975,0.5900000000000001,0.45499999999999996
0.995,0.585,0.48
1.025,0.595,0.45999999999999996
1.055,0.605,0.43999999999999995
1.055,0.65,0.43000000000000005
1.06,0.675,0.405
1.05,0.675,0.4
1.05,0.6950000000000001,0.39
1.04,0.69,0.405
1.03,0.6950000000000001,0.39
1.04,0.6799999999999999,0.365
1.045,0.7150000000000001,0.33499999999999996
1.04,0.73,0.275
1.015,0.725,0.19999999999999996
1.01,0.75,0.13
0.995,0.75,0.07999999999999996
1.005,0.74,0.030000000000000027
1.02,0.74,-0.014999999999999902
1.01,0.73,-0.030000000000000027
0.975,0.73,-0.014999999999999902
0.935,0.735,0.05500000000000005
0.955,0.745,0.14
0.97,0.745,0.19499999999999995
0.98,0.745,0.275
0.96,0.73,0.405
0.95,0.6799999999999999,0.5800000000000001
0.96,0.635,0.79
1.005,0.62,1.035
1.045,0.615,1.29
1.045,0.595,1.53
1.04,0.585,1.75
1.045,0.565,1.925
1.085,0.56,2.04
1.1,0.575,2.005
1.09,0.565,1.705
1.08,0.575,1.28
1.12,0.5449999999999999,0.865
1.17,0.54,0.585
1.205,0.52,0.44999999999999996
1.2,0.52,0.42500000000000004
1.2,0.55,0.375
1.2349999999999999,0.575,0.30000000000000004
1.29,0.5700000000000001,0.235
1.31,0.56,0.22999999999999998
1.32,0.5549999999999999,0.275
1.365,0.56,0.30500000000000005
1.42,0.5700000000000001,0.29000000000000004
1.49,0.565,0.26
1.505,0.53,0.21999999999999997
1.505,0.485,0.20999999999999996
1.53,0.505,0.235
1.58,0.605,0.235
1.6400000000000001,0.755,0.20499999999999996
1.6600000000000001,0.945,0.18000000000000005
1.65,1.175,0.16500000000000004
1.635,1.445,0.16000000000000003
1.62,1.72,0.19999999999999996
1.63,1.98,0.21999999999999997
1.65,2.205,0.22999999999999998
1.675,2.315,0.22999999999999998
1.6800000000000002,2.16,0.22499999999999998
1.665,1.7850000000000001,0.20999999999999996
1.65,1.32,0.22999999999999998
1.625,0.915,0.27
1.615,0.62,0.28500000000000003
1.62,0.51,0.29500000000000004
1.615,0.49,0.29500000000000004
1.615,0.49,0.28500000000000003
1.595,0.46499999999999997,0.28500000000000003
1.5699999999999998,0.48,0.30500000000000005
1.595,0.515,0.355
1.605,0.56,0.35
1.6099999999999999,0.55,0.30000000000000004
1.5899999999999999,0.54,0.29500000000000004
1.575,0.515,0.31499999999999995
1.58,0.51,0.31999999999999995
1.62,0.53,0.32999999999999996
1.6400000000000001,0.525,0.345
1.655,0.495,0.31999999999999995
1.645,0.48,0.345
1.615,0.485,0.375
1.605,0.495,0.43000000000000005
1.63,0.505,0.44999999999999996
1.65,0.525,0.45499999999999996
1.655,0.5349999999999999,0.43999999999999995
1.63,0.5349999999999999,0.45499999999999996
1.5899999999999999,0.53,0.49
1.5550000000000002,0.5449999999999999,0.53
1.5550000000000002,0.5449999999999999,0.54
1.58,0.5349999999999999,0.53
1.6400000000000001,0.52,0.52
1.71,0.52,0.53
1.8,0.54,0.565
1.955,0.54,0.62
2.175,0.56,0.64
2.455,0.5549999999999999,0.645
2.6950000000000003,0.53,0.645
2.88,0.505,0.65
2.99,0.525,0.685
2.9,0.575,0.7150000000000001
2.63,0.61,0.7150000000000001
2.27,0.605,0.74
1.94,0.5700000000000001,0.74
1.69,0.5349999999999999,0.74
1.5899999999999999,0.5449999999999999,0.77
1.6,0.55,0.78
1.6099999999999999,0.595,0.77
1.62,0.615,0.77
1.615,0.62,0.76
1.605,0.615,0.76
1.6,0.62,0.765
1.575,0.61,0.765
1.575,0.63,0.76
1.6,0.635,0.745
1.6,0.655,0.725
1.575,0.655,0.71
1.545,0.6699999999999999,0.685
1.505,0.6950000000000001,0.64
1.5,0.7050000000000001,0.63
1.525,0.6950000000000001,0.61
1.54,0.7050000000000001,0.575
1.52,0.7050000000000001,0.53
1.5,0.725,0.505
1.4849999999999999,0.745,0.495
1.48,0.73,0.475
1.495,0.725,0.44499999999999995
1.505,0.7050000000000001,0.42000000000000004
1.4849999999999999,0.7150000000000001,0.405
1.45,0.7150000000000001,0.41500000000000004
1.44,0.735,0.39
1.43,0.755,0.35
1.43,0.765,0.32999999999999996
1.415,0.745,0.30000000000000004
1.415,0.74,0.29500000000000004
1.4,0.735,0.30000000000000004
1.405,0.75,0.31499999999999995
1.43,0.765,0.31000000000000005
1.435,0.765,0.28
1.44,0.745,0.25
1.435,0.74,0.235
1.425,0.75,0.255
1.43,0.78,0.30500000000000005
1.425,0.78,0.32499999999999996
1.44,0.77,0.29500000000000004
1.44,0.74,0.26
1.425,0.71,0.25
1.4,0.6950000000000001,0.265
1.3900000000000001,0.6950000000000001,0.29500000000000004
1.395,0.72,0.30500000000000005
1.43,0.72,0.29000000000000004
1.445,0.7,0.28500000000000003
1.43,0.6799999999999999,0.28500000000000003
1.415,0.65,0.29500000000000004
1.41,0.64,0.31999999999999995
1.425,0.62,0.30500000000000005
1.455,0.62,0.28500000000000003
1.46,0.605,0.30000000000000004
1.445,0.61,0.30000000000000004
1.42,0.615,0.33499999999999996
1.395,0.61,0.35
1.41,0.6,0.36
1.445,0.61,0.36
1.445,0.61,0.345
1.435,0.585,0.365
1.42,0.6,0.385
1.42,0.595,0.42500000000000004
1.415,0.62,0.43000000000000005
1.45,0.63,0.41500000000000004
1.425,0.63,0.42500000000000004
1.405,0.625,0.43500000000000005
1.38,0.64,0.45499999999999996
1.365,0.63,0.485
1.37,0.625,0.51
1.3900000000000001,0.63,0.495
1.41,0.6,0.5
1.395,0.605,0.495
1.355,0.61,0.5
1.315,0.625,0.49
1.295,0.665,0.48
1.31,0.6799999999999999,0.475
1.31,0.6599999999999999,0.44499999999999995
1.31,0.655,0.41500000000000004
1.295,0.685,0.38
1.325,0.72,0.38
1.355,0.74,0.38
1.385,0.735,0.37
1.4,0.725,0.33499999999999996
1.375,0.75,0.31000000000000005
1.32,0.785,0.30500000000000005
1.275,0.8200000000000001,0.30500000000000005
1.29,0.825,0.31000000000000005
1.31,0.8200000000000001,0.28500000000000003
1.315,0.8049999999999999,0.275
1.28,0.795,0.255
1.245,0.785,0.26
1.23,0.775,0.27
1.245,0.755,0.25
1.285,0.75,0.245
1.3,0.72,0.22999999999999998
1.285,0.7,0.21499999999999997
1.25,0.6799999999999999,0.21999999999999997
1.24,0.675,0.265
1.255,0.685,0.25
1.26,0.6799999999999999,0.245
1.23,0.65,0.22999999999999998
1.205,0.615,0.20499999999999996
1.165,0.615,0.21499999999999997
1.16,0.625,0.245
1.15,0.64,0.235
1.15,0.63,0.20999999999999996
1.15,0.61,0.18999999999999995
1.145,0.5900000000000001,0.17500000000000004
1.1400000000000001,0.5900000000000001,0.20499999999999996
1.115,0.61,0.29500000000000004
1.1,0.63,0.41000000000000003
1.11,0.65,0.56
1.115,0.625,0.725
1.09,0.63,0.915
1.06,0.615,1.115
1.04,0.62,1.325
1.04,0.63,1.545
1.02,0.63,1.725
1.04,0.605,1.75
1.03,0.6,1.53
1.01,0.5900000000000001,1.17
1.005,0.595,0.8200000000000001
0.995,0.6599999999999999,0.475
1.03,0.755,0.25
1.045,0.865,0.15000000000000002
1.055,1.0,0.14500000000000002
1.04,1.2,0.16000000000000003
1.025,1.44,0.15000000000000002
0.995,1.7149999999999999,0.14500000000000002
0.98,1.995,0.16500000000000004
0.96,2.25,0.16000000000000003
0.96,2.45,0.14500000000000002
0.965,2.4450000000000003,0.15500000000000003
0.99,2.225,0.16500000000000004
1.035,1.885,0.16000000000000003
1.055,1.565,0.14
1.07,1.275,0.125
1.045,1.085,0.12
1.05,0.96,0.13
1.085,0.8049999999999999,0.14
1.12,0.62,0.15500000000000003
1.1400000000000001,0.495,0.16000000000000003
1.145,0.44499999999999995,0.14500000000000002
1.11,0.485,0.14
1.09,0.5549999999999999,0.15000000000000002
1.07,0.585,0.16500000000000004
1.075,0.575,0.18000000000000005
1.08,0.54,0.18000000000000005
1.085,0.53,0.16500000000000004
1.06,0.565,0.17500000000000004
1.035,0.5900000000000001,0.19999999999999996
1.015,0.62,0.19999999999999996
1.015,0.615,0.20999999999999996
1.015,0.62,0.20499999999999996
1.0,0.645,0.19499999999999995
0.97,0.71,0.18999999999999995
0.935,0.765,0.20499999999999996
0.91,0.76,0.22999999999999998
0.91,0.655,0.25
0.9299999999999999,0.575,0.22999999999999998
0.925,0.515,0.235
0.905,0.5900000000000001,0.22999999999999998
0.86,0.7050000000000001,0.245
0.85,0.8049999999999999,0.27
0.86,0.895,0.27
0.86,0.9,0.255
0.84,0.845,0.25
0.83,0.785,0.24
0.8200000000000001,0.795,0.25
0.815,0.815,0.27
0.81,0.8200000000000001,0.28500000000000003
0.825,0.81,0.28
0.825,0.8,0.28500000000000003
0.825,0.785,0.28500000000000003
0.8200000000000001,0.835,0.31000000000000005
0.825,0.91,0.345
0.845,0.925,0.35
0.875,0.85,0.35
0.87,0.78,0.345
0.86,0.745,0.345
0.835,0.7050000000000001,0.36
0.8200000000000001,0.635,0.39
0.845,0.5449999999999999,0.405
0.92,0.53,0.41000000000000003
0.98,0.565,0.385
1.055,0.615,0.39
1.185,0.6699999999999999,0.395
1.395,0.6950000000000001,0.43000000000000005
1.62,0.79,0.43999999999999995
1.905,0.92,0.43999999999999995
2.125,1.0,0.41500000000000004
2.335,0.98,0.42000000000000004
2.455,0.9299999999999999,0.43500000000000005
2.45,0.86,0.475
2.2350000000000003,0.825,0.475
1.85,0.845,0.475
1.44,0.925,0.47
1.05,1.045,0.46499999999999997
0.815,1.1400000000000001,0.47
0.73,1.1400000000000001,0.48
0.745,1.05,0.47
0.735,0.935,0.44999999999999996
0.685,0.84,0.42000000000000004
0.65,0.825,0.405
0.6599999999999999,0.905,0.4
0.6950000000000001,1.015,0.4
0.7050000000000001,1.08,0.385
0.69,1.1,0.35
0.6799999999999999,1.065,0.30000000000000004
0.675,1.03,0.275
0.665,1.025,0.28500000000000003
0.655,1.065,0.28500000000000003
0.645,1.13,0.27
0.65,1.225,0.25
0.64,1.305,0.22499999999999998
0.62,1.315,0.20499999999999996
0.605,1.215,0.21499999999999997
0.63,1.075,0.21999999999999997
0.645,1.0,0.21499999999999997
0.665,1.06,0.19999999999999996
0.635,1.19,0.18500000000000005
0.63,1.2349999999999999,0.17500000000000004
0.62,1.125,0.17500000000000004
0.605,0.99,0.17000000000000004
0.625,0.965,0.16500000000000004
0.635,1.06,0.15500000000000003
0.63,1.135,0.16500000000000004
0.615,1.1400000000000001,0.16000000000000003
0.585,1.085,0.16000000000000003
0.585,1.025,0.16500000000000004
0.595,1.01,0.18000000000000005
0.6,1.02,0.18000000000000005
0.635,1.04,0.16000000000000003
0.63,1.065,0.17500000000000004
0.64,1.095,0.18999999999999995
0.64,1.07,0.19999999999999996
0.61,0.965,0.20499999999999996
0.605,0.91,0.19999999999999996
0.605,0.97,0.18999999999999995
0.62,1.115,0.18000000000000005
0.615,1.255,0.18999999999999995
0.605,1.25,0.19499999999999995
0.635,1.125,0.19499999999999995
0.645,0.96,0.18500000000000005
0.65,0.825,0.18000000000000005
0.62,0.8,0.18500000000000005
0.62,0.87,0.18999999999999995
0.635,0.965,0.21499999999999997
0.64,1.065,0.22499999999999998
0.6599999999999999,1.18,0.22499999999999998
0.6799999999999999,1.245,0.20999999999999996
0.685,1.19,0.20499999999999996
0.6699999999999999,1.04,0.21999999999999997
0.6799999999999999,0.925,0.275
0.7,0.91,0.30000000000000004
0.7150000000000001,0.89,0.30000000000000004
0.725,0.86,0.265
0.71,0.87,0.26
0.7,1.02,0.28
0.7150000000000001,1.215,0.31999999999999995
0.71,1.35,0.345
0.71,1.325,0.345
0.72,1.215,0.33499999999999996
0.735,1.12,0.33999999999999997
0.74,1.1,0.33999999999999997
0.75,1.095,0.365
0.775,1.115,0.38
0.78,1.195,0.37
0.77,1.285,0.33999999999999997
0.75,1.315,0.31000000000000005
0.74,1.395,0.28
0.73,1.49,0.275
0.755,1.275,0.28500000000000003
0.75,0.75,0.24
0.75,0.32999999999999996,0.22499999999999998
0.76,0.265,0.21499999999999997
0.755,0.41000000000000003,0.20999999999999996
0.765,0.585,0.21999999999999997
0.795,0.765,0.21999999999999997
0.8,0.88,0.19999999999999996
0.79,0.92,0.18500000000000005
0.78,0.95,0.16500000000000004
0.775,0.965,0.17500000000000004
0.79,0.84,0.18000000000000005
0.79,0.585,0.18999999999999995
0.81,0.405,0.19499999999999995
0.825,0.44999999999999996,0.17000000000000004
0.845,0.645,0.16000000000000003
0.85,0.775,0.17500000000000004
0.835,0.81,0.20499999999999996
0.825,0.835,0.22999999999999998
0.8200000000000001,0.7050000000000001,0.265
0.795,0.43000000000000005,0.29000000000000004
0.765,0.28,0.33499999999999996
0.735,0.43999999999999995,0.385
0.73,0.72,0.45999999999999996
0.7150000000000001,0.81,0.53
0.72,0.72,0.565
0.7,0.725,0.62
0.675,0.95,0.7050000000000001
0.65,1.155,0.84
0.64,0.98,1.01
0.645,0.48,1.175
0.6599999999999999,0.22499999999999998,1.3599999999999999
0.645,0.47,1.6
0.62,0.83,1.855
0.5900000000000001,1.005,2.0949999999999998
0.595,1.055,2.3049999999999997
0.6,1.035,2.455
0.605,1.045,2.455
0.61,1.145,2.23
0.6,1.205,1.8199999999999998
0.605,1.05,1.375
0.595,0.9299999999999999,0.96
0.595,1.015,0.615
0.605,1.175,0.41500000000000004
0.625,1.315,0.31499999999999995
0.64,1.49,0.24
0.625,1.615,0.21999999999999997
0.64,1.585,0.22999999999999998
0.63,1.665,0.22999999999999998
0.635,2.085,0.21999999999999997
0.61,2.605,0.18000000000000005
0.5900000000000001,3.035,0.17000000000000004
0.575,3.31,0.17500000000000004
0.5900000000000001,3.465,0.16500000000000004
0.615,3.35,0.16500000000000004
0.615,2.865,0.14
0.61,2.245,0.12
0.62,1.7,0.10999999999999999
0.6,1.35,0.10999999999999999
0.64,1.075,0.13
0.6699999999999999,0.89,0.125
0.7050000000000001,0.83,0.11499999999999999
0.7050000000000001,0.87,0.10499999999999998
0.73,0.87,0.08999999999999997
0.72,0.875,0.08999999999999997
0.72,0.87,0.13
0.735,0.7050000000000001,0.14
0.755,0.5700000000000001,0.135
0.76,0.775,0.125
0.77,1.15,0.11499999999999999
0.77,1.21,0.11499999999999999
0.78,0.75,0.12
0.795,0.10999999999999999,0.13
0.81,-0.17999999999999994,0.12
0.8049999999999999,-0.010000000000000009,0.10999999999999999
0.83,0.32499999999999996,0.08999999999999997
0.835,0.5549999999999999,0.12
0.85,0.6,0.13
0.84,0.49,0.14
0.845,0.33499999999999996,0.14
0.81,0.27,0.135
0.77,0.385,0.135
0.74,0.505,0.14
0.73,0.495,0.16000000000000003
0.72,0.39,0.16500000000000004
0.72,0.36,0.16500000000000004
0.7,0.42000000000000004,0.15000000000000002
0.6699999999999999,0.43000000000000005,0.14
0.65,0.43999999999999995,0.15500000000000003
0.655,0.42500000000000004,0.16000000000000003
0.655,0.41500000000000004,0.17500000000000004
0.6799999999999999,0.4,0.18500000000000005
0.6699999999999999,0.365,0.18999999999999995
0.645,0.33999999999999997,0.18999999999999995
0.645,0.31999999999999995,0.19499999999999995
0.645,0.33499999999999996,0.21499999999999997
0.64,0.39,0.20999999999999996
0.65,0.42000000000000004,0.21999999999999997
0.64,0.365,0.22499999999999998
0.62,0.30000000000000004,0.24
0.565,0.30500000000000005,0.255
0.56,0.355,0.28
0.55,0.43500000000000005,0.28
0.5700000000000001,0.5349999999999999,0.275
0.5700000000000001,0.665,0.27
0.5549999999999999,0.775,0.275
0.55,0.79,0.28
0.5549999999999999,0.63,0.30500000000000005
0.5700000000000001,0.41500000000000004,0.32499999999999996
0.5700000000000001,0.19499999999999995,0.32499999999999996
0.575,0.07999999999999996,0.33499999999999996
0.55,0.21499999999999997,0.345
0.5549999999999999,0.395,0.365
0.6,0.43000000000000005,0.39
0.69,0.31000000000000005,0.4
0.845,0.235,0.4
1.045,0.29000000000000004,0.39
1.24,0.43999999999999995,0.4
1.46,0.515,0.4
1.71,0.52,0.41000000000000003
1.975,0.5,0.4
2.24,0.54,0.4
2.425,0.615,0.375
2.42,0.595,0.36
2.185,0.495,0.365
1.835,0.39,0.37
1.475,0.375,0.365
1.15,0.475,0.355
0.88,0.525,0.36
0.745,0.505,0.36
0.7,0.47,0.355
0.63,0.43500000000000005,0.375
0.565,0.41000000000000003,0.375
0.54,0.405,0.375
0.575,0.44999999999999996,0.355
0.585,0.52,0.33499999999999996
0.585,0.595,0.33499999999999996
0.565,0.615,0.33999999999999997
0.5800000000000001,0.63,0.33999999999999997
0.55,0.6699999999999999,0.31999999999999995
0.55,0.625,0.29500000000000004
0.5549999999999999,0.45999999999999996,0.31499999999999995
0.54,0.32999999999999996,0.32499999999999996
0.5549999999999999,0.385,0.345
0.56,0.515,0.355
0.585,0.62,0.355
0.5700000000000001,0.625,0.32999999999999996
0.5549999999999999,0.5900000000000001,0.32499999999999996
0.565,0.5800000000000001,0.32499999999999996
0.5700000000000001,0.665,0.35
0.5900000000000001,0.795,0.36
0.615,0.77,0.33999999999999997
0.62,0.51,0.345
0.615,0.35,0.33499999999999996
0.6,0.45999999999999996,0.35
0.595,0.6,0.355
0.6,0.64,0.375
0.61,0.55,0.38
0.615,0.46499999999999997,0.375
0.615,0.495,0.375
0.605,0.6599999999999999,0.38
0.5900000000000001,0.745,0.395
0.595,0.64,0.41500000000000004
0.61,0.495,0.41000000000000003
0.62,0.485,0.38
0.635,0.5800000000000001,0.4
0.625,0.6699999999999999,0.42500000000000004
0.615,0.645,0.46499999999999997
0.615,0.54,0.49
0.61,0.45499999999999996,0.485
0.625,0.505,0.46499999999999997
0.635,0.65,0.44999999999999996
0.635,0.7050000000000001,0.47
0.645,0.6,0.52
0.65,0.44499999999999995,0.55
0.6699999999999999,0.45499999999999996,0.5700000000000001
0.675,0.645,0.575
0.685,0.7150000000000001,0.5700000000000001
0.665,0.5349999999999999,0.5549999999999999
0.645,0.43500000000000005,0.595
0.6599999999999999,0.575,0.6
0.6699999999999999,0.655,0.62
0.6799999999999999,0.5,0.605
0.6799999999999999,0.36,0.585
0.665,0.405,0.6
0.665,0.5700000000000001,0.6
0.6950000000000001,0.755,0.5800000000000001
